Time	Total Energy	Total Kinetic Energy	Total Potential Energy	Pressure	Pressure StdDev	Temperature	Temperature StdDev	Total Momentum
0.001	4586.2705158081299	2.4460038716945292	4583.8245119364356	0	0	0	0	3.9799017870568597e-15
0.002	4586.2698273343012	3.8696691155230183	4582.4001582187784	58.042983583970745	58.042983583970745	0.0048370863944037727	0.0048370863944037727	3.4043319511094436e-15
0.0030000000000000001	4586.2687134706994	6.2594078370761368	4580.0093056336236	77.375733985868507	54.7129092483991	0.008440897460499296	0.006447726596109345	5.106120759944544e-15
0.0040000000000000001	4586.2672008499994	9.5974266697298063	4576.66977418027	87.026479435644958	50.244775768499643	0.012329064763955601	0.0087483380497458997	1.3506446028928519e-15
0.005000000000000001	4586.2653249072737	13.859536666492746	4572.4057882407806	92.800949023734475	46.400517127684353	0.016793020144410854	0.011871576367984455	5.3854400208818836e-15
0.0060000000000000019	4586.2631284995923	19.015696197353684	4567.2474323022388	96.634472228748109	43.216349054271902	0.021917390202573078	0.015771528577863139	1.2109576652781865e-14
0.0070000000000000027	4586.2606602798187	25.030668207805512	4561.2299920720134	99.356562993325696	40.562346429326958	0.027725858819278894	0.020387165445400372	1.058444965470703e-14
0.0080000000000000036	4586.2579729126273	31.864767352368549	4554.393205560259	101.38206417868065	38.319179789424837	0.034217866264484205	0.025665250343919685	7.1607233460988954e-15
0.0090000000000000045	4586.2551212249809	39.474670101743655	4546.7804511232371	102.94152753937814	36.395932294016816	0.041381067263359189	0.03155958191764513	2.2208900940601216e-14
0.010000000000000005	4586.2521603820678	47.814259884841299	4538.4379004972261	104.17336429276375	34.725412810771751	0.049196525508233592	0.03802813403167813	3.8207805601971685e-14
0.011000000000000006	4586.2491441717439	56.835479645308965	4529.4136645264352	105.16573043576777	33.25776725488484	0.057641268563237126	0.045031196417257724	5.7902148899581444e-15
0.012000000000000007	4586.2461234689663	66.489165759445285	4519.756957709521	105.97746822931697	31.955499160269557	0.066689739049518457	0.052530444468812498	3.5094288542101897e-14
0.013000000000000008	4586.2431449354981	76.725839901313861	4509.5173050341846	106.64938134962989	30.789953417181447	0.076314728334423557	0.060488572649766995	5.4623424119865907e-14
0.014000000000000009	4586.2402499931859	87.49643892282829	4498.7438110703579	107.21067694416374	29.738882206041374	0.086488040403898361	0.068869233829634127	4.01955935583216e-14
0.01500000000000001	4586.2374740907035	98.752966882755871	4487.4845072079479	107.68283012097001	28.784753625029236	0.097180998857431103	0.077637132378184773	1.532751246406711e-14
0.016000000000000011	4586.2348462665168	110.44905774116066	4475.7857885253561	108.08199864805808	27.913562050919754	0.108364851700898	0.086758184167422467	1.4878645486993984e-14
0.017000000000000012	4586.2323889952368	122.54044167729202	4463.6919473179451	108.42058492819301	27.113978817015607	0.1200111018475058	0.096199693980892897	4.8629796240914525e-14
0.018000000000000013	4586.2301182920937	134.985312258128	4451.2448060339657	108.7082769550737	26.376736398698856	0.13209177844738437	0.10593052222256544	3.7432795552814676e-14
0.019000000000000013	4586.22804403997	147.74459558858706	4438.4834484513831	108.95276029056743	25.694175126805742	0.14457965794865191	0.11592122544575709	1.4936523181711915e-14
0.020000000000000014	4586.2261704977091	160.78212596492901	4425.44404453278	109.1602162834198	25.059904737748809	0.15744844079683545	0.12614416296953293	1.0555880013644903e-14
0.021000000000000015	4586.224496944491	174.06473533034236	4412.1597616141489	109.33567785093712	24.468548275777106	0.17067288829821736	0.13657356677015123	7.1192916192869931e-15
0.022000000000000016	4586.2230184151413	187.56226594339915	4398.6607524717419	109.48328820325028	23.9155458971087	0.18422892359641188	0.14718557502743776	6.0410824880800178e-14
0.023000000000000017	4586.2217264831479	201.24751710635209	4384.9742093767954	109.60649209798567	23.397002834146726	0.19809370051682357	0.15795823177637977	1.0347278589506459e-13
0.024000000000000018	4586.2206100521125	215.09613758817329	4371.1244724639391	109.70817934272149	22.909570326006957	0.21224564399405729	0.16887145641299281	9.1535178426540857e-14
0.025000000000000019	4586.2196561217806	229.08647557327458	4357.1331805485061	109.79079394534884	22.450351448540477	0.22666446579162244	0.17990698754668227	2.1778489829741028e-14
0.02600000000000002	4586.2188505010636	243.19939764868101	4343.0194528523825	109.85641818210023	22.01682595667247	0.24133115918893322	0.1910483060229311	3.1739177304511722e-14
0.027000000000000021	4586.2181784469385	257.41808760130334	4328.8000908456352	109.90683809985228	21.606789791360534	0.25622797621909338	0.20228054196405412	8.0059320849734421e-15
0.028000000000000021	4586.2176252148702	271.7278347304495	4314.4897904844211	109.94359510168768	21.218306004593639	0.27133839088363021	0.21359037047206411	5.0242958677880805e-15
0.029000000000000022	4586.2171765123276	286.11582008665823	4300.1013564256691	109.96802697739363	20.849664652861872	0.28664705155028597	0.22496590027098826	3.8760619112617605e-14
0.030000000000000023	4586.2168188528185	300.57090761926594	4285.6459112335524	109.98130084021813	20.499349792936552	0.30213972546688195	0.23639655908960447	2.4872960517790769e-14
0.031000000000000024	4586.2165398125362	315.08344573621889	4271.1330940763173	109.98443979301092	20.16601214540551	0.31780323801119365	0.24787297904384309	2.4665947643496394e-14
0.032000000000000021	4586.2163281955882	329.64508332358065	4256.5712448720078	109.97834468891014	19.848446313880345	0.33362540895799858	0.25938688470749588	8.9332603972133603e-14
0.033000000000000022	4586.216174116973	344.24860289918752	4241.9675712177859	109.96381201934673	19.545571690980406	0.34959498769405833	0.27093098598988691	1.0791459175350285e-13
0.034000000000000023	4586.2160690143692	358.88777233166377	4227.3282966827055	109.94154871833268	19.256416367194259	0.3657015889627378	0.2824988773928967	6.3583898427649792e-15
0.035000000000000024	4586.2160056012508	373.55721547584972	4212.6587901254006	109.91218449139578	18.980103500575463	0.38193563038350603	0.29408494471463476	2.8425178665623567e-14
0.036000000000000025	4586.2159777743036	388.25230117910746	4197.9636765951964	109.87628214248203	18.715839714848165	0.39828827267695766	0.30568427981538882	1.7370644669874431e-14
0.037000000000000026	4586.2159804879011	402.96904940913873	4183.2469310787628	109.83434627027358	18.462905178774353	0.4147513632403601	0.31729260367110079	1.0452618589287095e-14
0.038000000000000027	4586.2160096077059	417.70405274171338	4168.5119568659929	109.78683062785205	18.220645086432093	0.43131738346704229	0.32890619761448792	1.7813458370713757e-14
0.039000000000000028	4586.2160617546224	432.4544111168255	4153.7616506377972	109.73414438015574	17.988462310681346	0.44797939998819686	0.34052184240478739	1.134132896747771e-13
0.040000000000000029	4586.2161341484034	447.21767760821916	4138.9984565401846	109.67665744765705	17.765811043803794	0.46473101983900567	0.3521367645720857	1.9070102821207141e-13
0.041000000000000029	4586.2162244590118	461.9918129331391	4124.2244115258727	109.6147050887821	17.552191272545429	0.48156634941202614	0.36374858934725041	7.153283345231121e-14
0.04200000000000003	4586.2163306720367	476.77514653263955	4109.4411841393976	109.54859184535248	17.347143961413636	0.49847995695773006	0.37535529940813933	1.1853106226633683e-13
0.043000000000000031	4586.2164509724907	491.56634225214424	4094.6501087203465	109.47859495292863	17.150246839537736	0.51546683832220985	0.38695519864025979	3.5571517988054757e-14
0.044000000000000032	4586.216583650069	506.36436692146299	4079.852216728606	109.40496730002351	16.961110703755111	0.53252238557178821	0.3985468801181522	3.0406331263719171e-14
0.045000000000000033	4586.216727027042	521.16846044814656	4065.0482665788959	109.32794000571695	16.779376164722581	0.54964235813953455	0.41012919755474647	6.2622877409776973e-14
0.046000000000000034	4586.2168794089321	535.97810637488169	4050.2387730340502	109.24772467347201	16.604710774419488	0.56682285613513606	0.42170123953227501	1.4273168140722167e-14
0.047000000000000035	4586.217039056748	550.79300219019024	4035.4240368665583	109.16451536935946	16.436806482923512	0.5840602954828028	0.43326230591263448	9.8987076448141391e-14
0.048000000000000036	4586.2172041787981	565.61302900446492	4020.6041751743328	109.07849036499165	16.275377380217719	0.60135138458756043	0.44481188592064586	4.7102773760513254e-14
0.049000000000000037	4586.217372939328	580.43822049653465	4005.779152442793	108.98981367891878	16.120157685352755	0.61869310227437224	0.45634963749433882	1.0848873077835087e-13
0.050000000000000037	4586.2175434808669	595.26873128873683	3990.9488121921299	108.89863644479072	15.970899950777911	0.63608267679332153	0.46787536759691128	1.6286634992550341e-14
0.051000000000000038	4586.2177139568084	610.10480511389869	3976.1129088429093	108.80509813003435	15.827373454279758	0.65351756573432995	0.47938901328097289	4.0974299524660802e-14
0.052000000000000039	4586.2178825708452	624.94674329166151	3961.2711392791839	108.70932762498254	15.689362754894535	0.6709954367438461	0.49089062338355888	2.4845193867938358e-14
0.05300000000000004	4586.2180476198046	639.79487413319896	3946.4231734866053	108.61144421919477	15.556666392496069	0.68851414898137708	0.50238034080757277	5.709958074520724e-14
0.054000000000000041	4586.2182075368701	654.64952394412592	3931.568683592744	108.51155847903034	15.429095713611055	0.70607173529395029	0.51385838541000806	3.2023728339893769e-14
0.055000000000000042	4586.218360932432	669.51099029880959	3916.7073706336223	108.40977303829386	15.306473808464716	0.72366638512036963	0.52532503756853943	1.945191849636581e-13
0.056000000000000043	4586.2185066301354	684.37951822067362	3901.8389884094613	108.30618331190077	15.188634546372526	0.74129642816378605	0.53678062253548187	3.5749622721097692e-13
0.057000000000000044	4586.2186436964894	699.25527982885023	3886.9633638676391	108.20087814095895	15.075421698397331	0.75896031889024795	0.54822549571209711	2.9709568138969189e-13
0.058000000000000045	4586.2187714624943	714.13835790888243	3872.0804135536123	108.09394037637695	14.966688137764285	0.77665662192269547	0.55966002898742251	2.4569734703815041e-13
0.059000000000000045	4586.2188895364907	729.0287337417501	3857.1901557947403	107.98544740705614	14.86229510986441	0.7943839984045884	0.57108459828551628	1.6348877521454166e-13
0.060000000000000046	4586.218997807935	743.92627938867713	3842.2927184192577	107.87547163786527	14.762111564832482	0.81214119340570678	0.58249957245458217	6.4967686378576103e-14
0.061000000000000047	4586.2190964420643	758.8307544864806	3827.3883419555841	107.76408092190205	14.666013546671421	0.82992702443538702	0.59390530361260552	1.3738443592177476e-13
0.062000000000000048	4586.2191858659044	773.74180746604463	3812.4773783998598	107.65133895099144	14.573883633725998	0.84774037111651146	0.6053021190385911	4.716227408607665e-13
0.063000000000000042	4586.2192667463887	788.65898097105787	3797.5602857753311	107.53730560792873	14.485610426020434	0.86558016605795829	0.61669031466805435	1.3203721447146771e-14
0.064000000000000043	4586.219339961619	803.58172113030787	3782.6376188313111	107.42203728362941	14.401088075551668	0.88344538694495511	0.62807015021784829	1.4756864602152462e-13
0.065000000000000044	4586.2194065664453	818.50939022880311	3767.7100163376422	107.3055871620753	14.320215856127849	0.90133504984690982	0.63944184593032138	6.6598576858707261e-14
0.066000000000000045	4586.2194677538337	833.44128223381267	3752.7781855200205	107.18800547573441	14.242897769726895	0.91924820372172233	0.65080558089182816	1.1957467920563633e-14
0.067000000000000046	4586.2195248132084	848.37664056377105	3737.8428842494372	107.06933973396539	14.169042186671746	0.93718392607527012	0.66216149284700299	6.8833827526759706e-14
0.068000000000000047	4586.2195790875048	863.31467744202723	3722.9049016454774	106.94963492678252	14.098561517176316	0.95514131971541383	0.67350967939925654	6.4861353728885859e-14
0.069000000000000047	4586.2196319300692	878.25459415393163	3707.9650377761377	106.82893370624808	14.031371912000836	0.97311951052221668	0.68485020046057266	4.9535359549416389e-14
0.070000000000000048	4586.2196846628785	893.19560152435372	3693.0240831385249	106.70727654766152	13.967392990116839	0.99111764614062625	0.69618308179067057	2.340956782580993e-13
0.071000000000000049	4586.2197385372956	908.13693995215124	3678.0827985851447	106.58470189262685	13.906547591392377	1.0091348954890735	0.70750831944749737	7.944109290391274e-15
0.07200000000000005	4586.2197946983033	923.07789837681275	3663.141896321491	106.46124627599413	13.848761552390581	1.0271704489675868	0.71882588495819855	1.2440919650758362e-13
0.073000000000000051	4586.2198541532825	938.01783160814466	3648.2020225451379	106.33694443858141	13.793963503448182	1.0452235192422821	0.73013573101233431	9.6383729099412522e-14
0.074000000000000052	4586.2199177459925	952.95617552017109	3633.2637422258217	106.21182942749151	13.742084685250475	1.0632933424795541	0.74143779747712801	4.8256785970601343e-14
0.075000000000000053	4586.2199861363033	967.8924596923066	3618.3275264439967	106.08593268573692	13.69305878316532	1.0813791799029038	0.75273201753779195	2.3630595686990383e-13
0.076000000000000054	4586.2200597860401	982.82631717189713	3603.3937426141429	105.95928413277835	13.646821777649507	1.0994803195479939	0.76401832377412615	2.5011331388797805e-14
0.077000000000000055	4586.2201389511429	997.75749112888661	3588.4626478222567	105.83191223746607	13.603311809083008	1.1175960780970096	0.77529665399719261	2.195597892537493e-13
0.078000000000000055	4586.2202236801131	1012.6858382732897	3573.5343854068237	105.7038440847485	13.562469055448066	1.1357258026814483	0.78656695668638155	1.067662871904967e-14
0.079000000000000056	4586.2203138185832	1027.6113290059493	3558.6089848126339	105.57510543738161	13.52423562133297	1.1538688725527575	0.79782919588699264	1.369415884753065e-13
0.080000000000000057	4586.2204090196828	1042.534044370424	3543.6863646492593	105.44572079373594	13.48855543681225	1.172024700532424	0.80908335545085508	4.476421438111551e-13
0.081000000000000058	4586.2205087596549	1057.4541699659328	3528.7663387937223	105.31571344265734	13.455374164849541	1.1901927341667746	0.82032944252684892	2.701289205785704e-14
0.082000000000000059	4586.2206123582801	1072.3719870660536	3513.8486252922262	105.18510551619535	13.4246391159579	1.208372456526511	0.83156749023368604	1.5468654173000972e-13
0.08300000000000006	4586.2207190032032	1087.2878612630213	3498.9328577401816	105.05391804087117	13.396299168972606	1.226563386606403	0.84279755947334356	2.2118496051741739e-13
0.084000000000000061	4586.2208277775289	1102.2022290215941	3484.0185987559348	104.92217098801737	13.370304696899591	1.2447650792962552	0.85401973986931223	2.9251425084207826e-13
0.085000000000000062	4586.2209376897208	1117.1155825778483	3469.105355111873	104.78988332358674	13.346607496938098	1.2629771249097654	0.86523414983882474	3.5538237284069671e-14
0.086000000000000063	4586.2210477049503	1132.0284536561369	3454.1925940488136	104.65707305769917	13.325160723902064	1.2811991482729115	0.87644093583174421	1.1832456780340471e-13
0.087000000000000063	4586.2211567770082	1146.9413965009664	3439.2797602760415	104.52375729407638	13.305918826402689	1.2994308073876186	0.88764027079038388	1.2353664667784087e-13
0.088000000000000064	4586.2212638797919	1161.8549707294974	3424.366293150294	104.38995227940504	13.288837485284972	1.3176717916993925	0.89883235190368926	4.4286984318668048e-13
0.089000000000000065	4586.2213680375144	1176.7697245047914	3409.4516435327232	104.25567345257156	13.273873553948919	1.3359218200090845	0.91001739774558421	4.6187412819337709e-13
0.090000000000000066	4586.221468352901	1191.6861785103131	3394.5352898425876	104.12093549362865	13.26098500030588	1.3541806380787145	0.92119564490057149	9.102853919755885e-14
0.091000000000000067	4586.2215640324193	1206.6048111732766	3379.6167528591432	103.98575237228351	13.250130850243309	1.3724480159892034	0.93236734418964939	3.2023728339893768e-15
0.092000000000000068	4586.2216544080375	1221.5260455394755	3364.695608868562	103.85013739564405	13.241271132570386	1.3907237453137631	0.9435327566161944	2.0288608142115711e-13
0.093000000000000069	4586.2217389549369	1236.450238146595	3349.7715008083419	103.71410325491884	13.234366825519812	1.4090076361745454	0.95469214915453948	3.3877341807774544e-13
0.09400000000000007	4586.2218173046767	1251.3776701785027	3334.8441471261744	103.57766207074327	13.229379804953668	1.4272995142519043	0.96584579050372865	1.7696829641852286e-14
0.09500000000000007	4586.2218892535366	1266.308541111576	3319.9133481419603	103.44082543679477	13.226272794482082	1.4455992178153476	0.97699394692531771	2.4430719381534181e-13
0.096000000000000071	4586.2219547659224	1281.2429649878607	3304.9789897780615	103.30360446136434	13.225009317754266	1.4639065948429966	0.98813687827751873	5.9746092726847661e-14
0.097000000000000072	4586.2220139727942	1296.1809693710527	3290.0410446017413	103.16600980656968	13.225553653205221	1.4822215002923225	0.9992748343485256	4.8035592509840653e-14
0.098000000000000073	4586.2220671652349	1311.1224969622947	3275.0995702029404	103.02805172492461	13.227870791550421	1.5005437935791943	1.0104080515800542	1.386013736004881e-13
0.099000000000000074	4586.2221147834443	1326.0674097757178	3260.154705007727	102.88974009301961	13.231926396318304	1.5188733363151548	1.0215367502581969	1.4043333874306804e-14
0.10000000000000007	4586.2221574015666	1341.0154957009129	3245.2066617006535	102.75108444211608	13.237686767680771	1.537209990344526	1.0326611322331687	1.9364122858490222e-13
0.10100000000000008	4586.2221957088514	1355.9664772130234	3230.2557184958282	103.63821492536768	8.4167785704994742	1.5711091522748513	1.0372728271945377	9.7071847169326013e-14
0.10200000000000008	4586.2222304877787	1370.9200219327765	3215.3022085550024	103.36137352377291	8.4579861759046562	1.6052854110952828	1.0415567944595814	2.3272986433303883e-13
0.10300000000000008	4586.2222625897748	1385.8757546901145	3200.3465078996601	103.0818663618	8.4960936426300684	1.6397758197666084	1.0454450462708369	2.3198465426636015e-13
0.10400000000000008	4586.2222929094523	1400.833270707473	3185.3890222019791	102.79987051459315	8.5312680975288124	1.6745567158675518	1.0489613901683927	1.8433500652749021e-13
0.10500000000000008	4586.2223223578849	1415.7921494928498	3170.4301728650353	102.51555896712848	8.5636813641760838	1.7096050311882107	1.0521302380385933	1.5041977424377774e-13
0.10600000000000008	4586.2223518359924	1430.7519690196893	3155.4703828163033	102.22909959936318	8.5935077190449221	1.7448984380087689	1.0549762753271936	1.750274961066197e-13
0.10700000000000008	4586.2223822086098	1445.7123197697622	3140.5100624388474	101.94065427902714	8.6209217528626461	1.7804154792978175	1.0575241463528624	1.3504985793665164e-13
0.10800000000000008	4586.2224142801206	1460.6728182271402	3125.5495960529802	101.65037807733343	8.6460963838832132	1.8161356805696869	1.0597981629589346	1.0747325887980719e-13
0.10900000000000008	4586.2224487722569	1475.6331194348979	3110.5893293373588	101.35841861851422	8.6692010621175086	1.8520396418030161	1.0618220425237008	1.1457157353758233e-13
0.11000000000000008	4586.2224863047559	1490.5929282608354	3095.629558043921	101.06491556953804	8.6904001945842175	1.8881091085124158	1.0636186799305956	1.0401172267682598e-13
0.11100000000000008	4586.2225273792983	1505.5520090628063	3080.6705183164922	100.77000027184755	8.7098518119810322	1.9243270217478536	1.0652099565725512	5.6488426793627317e-14
0.11200000000000009	4586.2225723672118	1520.5101934967352	3065.7123788704766	100.47379551268233	8.7277064873865111	1.9606775474412856	1.0666165879218934	9.7735953984811706e-14
